NO_OF_FRAMES	939
NO_OF_CAMERAS	0
NO_OF_MARKERS	8
FREQUENCY	240
NO_OF_ANALOG	0
ANALOG_FREQUENCY	0
DESCRIPTION	--
TIME_STAMP	1969-12-31, 21:00:00	0.00000000
DATA_INCLUDED	3D
MARKER_NAMES	SACRO	EIASD	EIASE	EIPSD	EIPSE	TMFD	ELFD	EMFD
0.117	568.978	965.786	-155.846	405.287	947.006	130.961	386.579	939.627	-53.632	561.926	973.332	57.196	559.673	969.818	-183.697	438.597	895.509	-202.811	408.659	475.483	-59.546	410.144	450.696
0.169	569.188	965.694	-155.844	405.555	946.828	130.962	386.734	939.390	-53.584	562.118	973.246	57.250	559.869	969.727	-183.684	438.873	895.399	-202.943	408.434	475.434	-59.661	409.885	450.688
0.226	569.415	965.593	-155.842	405.841	946.635	130.962	386.900	939.135	-53.533	562.327	973.152	57.307	560.080	969.627	-183.669	439.168	895.278	-203.083	408.191	475.382	-59.785	409.604	450.679
0.285	569.659	965.483	-155.840	406.144	946.427	130.962	387.078	938.863	-53.479	562.551	973.050	57.368	560.305	969.518	-183.652	439.483	895.146	-203.233	407.932	475.324	-59.917	409.299	450.669
0.347	569.920	965.365	-155.836	406.464	946.204	130.962	387.266	938.575	-53.423	562.791	972.939	57.431	560.545	969.402	-183.633	439.814	895.004	-203.391	407.656	475.263	-60.058	408.971	450.660
0.413	570.197	965.238	-155.833	406.800	945.968	130.960	387.466	938.271	-53.363	563.045	972.820	57.496	560.799	969.277	-183.612	440.163	894.850	-203.557	407.363	475.196	-60.207	408.620	450.649
0.480	570.489	965.103	-155.828	407.149	945.718	130.958	387.675	937.953	-53.302	563.314	972.692	57.563	561.066	969.143	-183.590	440.526	894.687	-203.730	407.056	475.126	-60.364	408.247	450.639
0.550	570.797	964.959	-155.823	407.511	945.455	130.954	387.894	937.621	-53.239	563.597	972.555	57.632	561.346	969.003	-183.566	440.904	894.513	-203.910	406.734	475.050	-60.528	407.852	450.627
0.622	571.118	964.808	-155.816	407.885	945.180	130.950	388.121	937.277	-53.174	563.893	972.410	57.702	561.638	968.854	-183.541	441.295	894.330	-204.095	406.398	474.971	-60.700	407.437	450.615
0.695	571.452	964.648	-155.809	408.268	944.893	130.945	388.356	936.923	-53.108	564.201	972.257	57.772	561.941	968.699	-183.514	441.697	894.137	-204.285	406.049	474.888	-60.878	407.002	450.603
0.769	571.798	964.481	-155.802	408.661	944.596	130.939	388.600	936.558	-53.042	564.520	972.097	57.842	562.255	968.536	-183.486	442.109	893.935	-204.479	405.688	474.801	-61.063	406.548	450.589
0.844	572.155	964.306	-155.793	409.061	944.288	130.932	388.850	936.185	-52.974	564.850	971.928	57.913	562.579	968.367	-183.458	442.530	893.724	-204.678	405.317	474.710	-61.255	406.077	450.574
0.919	572.521	964.123	-155.784	409.466	943.971	130.925	389.108	935.805	-52.907	565.190	971.752	57.982	562.912	968.191	-183.429	442.958	893.506	-204.879	404.937	474.617	-61.452	405.589	450.559
0.994	572.897	963.934	-155.774	409.877	943.645	130.917	389.373	935.418	-52.841	565.539	971.569	58.051	563.252	968.009	-183.400	443.392	893.279	-205.083	404.549	474.522	-61.655	405.088	450.542
1.068	573.280	963.737	-155.764	410.292	943.312	130.909	389.644	935.027	-52.775	565.896	971.379	58.118	563.601	967.821	-183.370	443.832	893.046	-205.290	404.155	474.425	-61.863	404.573	450.525
1.142	573.670	963.534	-155.753	410.710	942.971	130.901	389.921	934.632	-52.710	566.260	971.183	58.184	563.955	967.627	-183.341	444.276	892.805	-205.500	403.756	474.325	-62.076	404.046	450.506
1.214	574.065	963.325	-155.741	411.129	942.624	130.893	390.204	934.233	-52.646	566.631	970.980	58.247	564.315	967.427	-183.312	444.722	892.559	-205.711	403.352	474.225	-62.293	403.510	450.485
1.285	574.465	963.109	-155.729	411.549	942.272	130.884	390.492	933.833	-52.584	567.006	970.771	58.309	564.681	967.223	-183.284	445.171	892.308	-205.925	402.946	474.124	-62.514	402.966	450.463
1.353	574.868	962.889	-155.717	411.970	941.915	130.876	390.787	933.432	-52.524	567.386	970.556	58.369	565.050	967.013	-183.256	445.621	892.052	-206.141	402.539	474.023	-62.739	402.416	450.440
1.420	575.275	962.663	-155.703	412.389	941.553	130.869	391.086	933.031	-52.467	567.769	970.336	58.426	565.422	966.798	-183.230	446.071	891.791	-206.359	402.131	473.922	-62.967	401.861	450.415
1.483	575.682	962.432	-155.690	412.806	941.188	130.861	391.390	932.630	-52.412	568.155	970.111	58.480	565.797	966.578	-183.204	446.521	891.527	-206.580	401.725	473.822	-63.198	401.303	450.388
1.545	576.091	962.198	-155.675	413.220	940.820	130.855	391.698	932.232	-52.359	568.542	969.881	58.532	566.174	966.355	-183.179	446.970	891.260	-206.803	401.320	473.723	-63.432	400.745	450.359
1.603	576.500	961.959	-155.661	413.631	940.451	130.848	392.011	931.835	-52.310	568.931	969.647	58.580	566.553	966.128	-183.156	447.418	890.990	-207.029	400.918	473.625	-63.668	400.188	450.328
1.658	576.908	961.718	-155.645	414.038	940.079	130.842	392.327	931.442	-52.263	569.319	969.409	58.626	566.932	965.898	-183.134	447.863	890.719	-207.256	400.520	473.529	-63.907	399.633	450.295
1.710	577.314	961.474	-155.629	414.440	939.707	130.837	392.647	931.053	-52.219	569.707	969.167	58.669	567.311	965.666	-183.113	448.306	890.445	-207.487	400.127	473.435	-64.149	399.082	450.260
1.759	577.719	961.227	-155.613	414.837	939.335	130.832	392.969	930.669	-52.179	570.094	968.923	58.708	567.690	965.432	-183.094	448.746	890.170	-207.719	399.738	473.342	-64.392	398.536	450.223
1.804	578.121	960.979	-155.596	415.228	938.963	130.827	393.294	930.290	-52.142	570.480	968.677	58.745	568.067	965.197	-183.076	449.182	889.894	-207.954	399.355	473.253	-64.639	397.996	450.184
1.846	578.519	960.731	-155.578	415.612	938.592	130.823	393.620	929.916	-52.108	570.863	968.428	58.779	568.443	964.961	-183.059	449.614	889.617	-208.191	398.978	473.165	-64.887	397.463	450.143
1.884	578.915	960.482	-155.560	415.990	938.222	130.819	393.948	929.549	-52.077	571.244	968.178	58.810	568.815	964.723	-183.044	450.043	889.340	-208.429	398.607	473.080	-65.138	396.937	450.101
1.919	579.306	960.233	-155.542	416.361	937.855	130.815	394.277	929.188	-52.050	571.622	967.926	58.838	569.184	964.486	-183.030	450.467	889.062	-208.669	398.242	472.998	-65.392	396.420	450.057
1.950	579.693	959.985	-155.523	416.725	937.490	130.811	394.607	928.834	-52.025	571.997	967.675	58.863	569.549	964.249	-183.018	450.886	888.785	-208.911	397.883	472.918	-65.647	395.912	450.011
1.978	580.076	959.738	-155.503	417.081	937.128	130.807	394.937	928.487	-52.004	572.369	967.423	58.886	569.910	964.012	-183.007	451.300	888.508	-209.153	397.531	472.840	-65.905	395.413	449.965
2.002	580.454	959.494	-155.484	417.430	936.769	130.802	395.267	928.147	-51.986	572.737	967.171	58.906	570.265	963.777	-182.998	451.709	888.232	-209.396	397.184	472.765	-66.165	394.922	449.917
2.023	580.828	959.251	-155.464	417.770	936.414	130.797	395.597	927.814	-51.970	573.101	966.921	58.924	570.616	963.544	-182.990	452.112	887.956	-209.640	396.844	472.693	-66.427	394.441	449.869
2.040	581.197	959.012	-155.444	418.103	936.063	130.790	395.927	927.488	-51.957	573.460	966.671	58.939	570.960	963.313	-182.984	452.510	887.680	-209.884	396.508	472.622	-66.691	393.969	449.820
2.054	581.561	958.775	-155.425	418.428	935.716	130.783	396.255	927.170	-51.947	573.815	966.424	58.951	571.300	963.085	-182.980	452.902	887.406	-210.129	396.178	472.554	-66.955	393.505	449.771
2.064	581.920	958.542	-155.405	418.745	935.374	130.775	396.583	926.859	-51.940	574.164	966.178	58.961	571.633	962.861	-182.977	453.289	887.132	-210.373	395.853	472.488	-67.220	393.050	449.722
2.071	582.274	958.312	-155.387	419.055	935.037	130.765	396.908	926.554	-51.934	574.508	965.935	58.967	571.961	962.641	-182.976	453.670	886.859	-210.616	395.531	472.423	-67.484	392.603	449.673
2.075	582.622	958.087	-155.369	419.357	934.704	130.754	397.232	926.256	-51.931	574.847	965.693	58.972	572.282	962.425	-182.976	454.045	886.588	-210.859	395.213	472.361	-67.749	392.163	449.625
2.076	582.966	957.865	-155.352	419.652	934.376	130.741	397.554	925.964	-51.930	575.180	965.455	58.973	572.597	962.213	-182.977	454.415	886.317	-211.102	394.898	472.300	-68.012	391.732	449.576
2.074	583.304	957.646	-155.336	419.941	934.053	130.726	397.874	925.678	-51.931	575.507	965.219	58.972	572.906	962.005	-182.980	454.779	886.047	-211.343	394.585	472.241	-68.274	391.307	449.528
2.069	583.637	957.432	-155.322	420.223	933.734	130.710	398.191	925.397	-51.933	575.827	964.986	58.968	573.208	961.801	-182.985	455.138	885.778	-211.583	394.274	472.183	-68.534	390.890	449.481
2.061	583.965	957.221	-155.310	420.499	933.419	130.691	398.505	925.121	-51.937	576.142	964.756	58.961	573.505	961.601	-182.992	455.492	885.510	-211.821	393.964	472.126	-68.792	390.478	449.434
2.051	584.288	957.014	-155.301	420.770	933.109	130.670	398.817	924.849	-51.943	576.450	964.528	58.952	573.795	961.405	-183.000	455.840	885.244	-212.058	393.654	472.069	-69.047	390.072	449.389
2.038	584.606	956.809	-155.294	421.036	932.802	130.647	399.125	924.581	-51.951	576.751	964.303	58.940	574.080	961.213	-183.010	456.184	884.978	-212.292	393.343	472.013	-69.300	389.672	449.344
2.023	584.919	956.607	-155.290	421.297	932.499	130.622	399.431	924.315	-51.960	577.046	964.080	58.926	574.359	961.024	-183.022	456.523	884.714	-212.525	393.032	471.957	-69.549	389.276	449.299
2.006	585.227	956.407	-155.290	421.555	932.199	130.594	399.733	924.051	-51.970	577.335	963.859	58.910	574.634	960.838	-183.037	456.857	884.451	-212.756	392.719	471.900	-69.795	388.885	449.256
1.987	585.531	956.209	-155.293	421.811	931.901	130.564	400.032	923.788	-51.982	577.617	963.639	58.891	574.903	960.654	-183.054	457.186	884.189	-212.985	392.403	471.843	-70.037	388.498	449.214
1.966	585.829	956.013	-155.300	422.064	931.604	130.532	400.327	923.526	-51.995	577.893	963.421	58.870	575.167	960.471	-183.073	457.510	883.927	-213.212	392.086	471.785	-70.276	388.115	449.173
1.943	586.123	955.817	-155.312	422.315	931.309	130.497	400.619	923.262	-52.010	578.163	963.204	58.847	575.427	960.288	-183.095	457.830	883.667	-213.437	391.766	471.725	-70.511	387.734	449.133
1.918	586.413	955.621	-155.328	422.566	931.014	130.461	400.907	922.998	-52.026	578.427	962.988	58.823	575.682	960.106	-183.119	458.145	883.407	-213.660	391.443	471.663	-70.742	387.357	449.094
1.892	586.699	955.425	-155.349	422.816	930.720	130.423	401.191	922.731	-52.043	578.685	962.772	58.796	575.933	959.922	-183.147	458.455	883.148	-213.881	391.116	471.600	-70.971	386.981	449.056
1.864	586.980	955.228	-155.374	423.067	930.424	130.383	401.471	922.460	-52.061	578.938	962.556	58.769	576.179	959.737	-183.177	458.761	882.889	-214.100	390.786	471.535	-71.196	386.607	449.019
1.834	587.258	955.030	-155.404	423.319	930.127	130.342	401.746	922.185	-52.081	579.185	962.340	58.739	576.421	959.549	-183.210	459.062	882.630	-214.317	390.452	471.468	-71.419	386.234	448.982
1.803	587.531	954.830	-155.439	423.574	929.828	130.299	402.017	921.905	-52.102	579.427	962.122	58.709	576.658	959.358	-183.245	459.358	882.371	-214.533	390.115	471.399	-71.639	385.861	448.945
1.771	587.801	954.628	-155.479	423.831	929.525	130.255	402.284	921.620	-52.124	579.664	961.904	58.678	576.891	959.163	-183.283	459.649	882.111	-214.747	389.774	471.327	-71.858	385.489	448.908
1.737	588.067	954.423	-155.523	424.092	929.220	130.210	402.546	921.328	-52.148	579.897	961.683	58.646	577.120	958.964	-183.324	459.935	881.852	-214.960	389.429	471.254	-72.074	385.115	448.872
1.702	588.330	954.216	-155.573	424.357	928.909	130.163	402.804	921.029	-52.173	580.127	961.460	58.614	577.346	958.760	-183.368	460.216	881.592	-215.172	389.081	471.178	-72.289	384.741	448.835
1.666	588.590	954.005	-155.626	424.627	928.594	130.116	403.057	920.723	-52.200	580.353	961.236	58.581	577.567	958.551	-183.414	460.492	881.331	-215.382	388.728	471.101	-72.503	384.365	448.797
1.628	588.846	953.790	-155.683	424.902	928.274	130.067	403.306	920.409	-52.228	580.576	961.008	58.548	577.786	958.336	-183.463	460.763	881.069	-215.593	388.372	471.021	-72.716	383.988	448.759
1.590	589.100	953.572	-155.744	425.180	927.948	130.016	403.550	920.087	-52.258	580.796	960.778	58.514	578.001	958.115	-183.515	461.030	880.807	-215.803	388.012	470.940	-72.928	383.608	448.720
1.551	589.351	953.349	-155.808	425.460	927.617	129.965	403.789	919.758	-52.289	581.014	960.544	58.481	578.214	957.888	-183.568	461.292	880.543	-216.013	387.648	470.856	-73.140	383.225	448.680
1.510	589.600	953.123	-155.873	425.741	927.281	129.912	404.024	919.421	-52.322	581.230	960.307	58.447	578.424	957.656	-183.624	461.549	880.277	-216.224	387.281	470.771	-73.350	382.840	448.638
1.469	589.846	952.891	-155.940	426.022	926.940	129.858	404.255	919.076	-52.357	581.444	960.066	58.412	578.632	957.417	-183.682	461.802	880.010	-216.435	386.909	470.685	-73.561	382.452	448.595
1.428	590.090	952.655	-156.007	426.302	926.594	129.803	404.480	918.723	-52.394	581.656	959.822	58.378	578.838	957.172	-183.741	462.050	879.741	-216.648	386.534	470.597	-73.771	382.060	448.551
1.385	590.333	952.414	-156.074	426.578	926.243	129.746	404.702	918.363	-52.432	581.867	959.573	58.343	579.043	956.920	-183.801	462.295	879.469	-216.863	386.154	470.507	-73.980	381.664	448.505
1.343	590.573	952.168	-156.141	426.851	925.888	129.689	404.918	917.997	-52.472	582.076	959.320	58.307	579.247	956.663	-183.863	462.535	879.194	-217.079	385.770	470.416	-74.190	381.265	448.457
1.299	590.811	951.916	-156.206	427.119	925.528	129.630	405.131	917.624	-52.514	582.284	959.063	58.272	579.449	956.399	-183.925	462.771	878.917	-217.298	385.382	470.323	-74.399	380.863	448.407
1.256	591.049	951.659	-156.270	427.381	925.163	129.570	405.339	917.244	-52.558	582.490	958.801	58.235	579.652	956.128	-183.987	463.002	878.635	-217.519	384.989	470.228	-74.609	380.456	448.354
1.211	591.284	951.395	-156.331	427.637	924.794	129.509	405.542	916.859	-52.603	582.695	958.534	58.198	579.853	955.851	-184.049	463.230	878.351	-217.742	384.591	470.130	-74.818	380.044	448.299
1.167	591.519	951.126	-156.391	427.886	924.421	129.448	405.742	916.468	-52.650	582.898	958.263	58.161	580.056	955.567	-184.112	463.454	878.062	-217.969	384.189	470.031	-75.029	379.628	448.242
1.122	591.753	950.851	-156.447	428.128	924.043	129.385	405.938	916.071	-52.698	583.101	957.986	58.123	580.258	955.276	-184.174	463.675	877.770	-218.199	383.780	469.929	-75.240	379.208	448.181
1.077	591.986	950.569	-156.501	428.363	923.660	129.323	406.131	915.669	-52.748	583.302	957.703	58.085	580.462	954.979	-184.236	463.892	877.474	-218.431	383.367	469.824	-75.452	378.783	448.117
1.031	592.218	950.281	-156.551	428.590	923.273	129.259	406.321	915.262	-52.798	583.502	957.414	58.046	580.666	954.674	-184.298	464.106	877.174	-218.667	382.948	469.716	-75.666	378.353	448.050
0.985	592.449	949.986	-156.599	428.810	922.882	129.196	406.509	914.850	-52.849	583.701	957.120	58.006	580.871	954.361	-184.359	464.316	876.870	-218.906	382.524	469.605	-75.882	377.918	447.979
0.939	592.681	949.684	-156.643	429.023	922.485	129.133	406.694	914.433	-52.901	583.899	956.819	57.966	581.078	954.042	-184.420	464.524	876.563	-219.149	382.094	469.491	-76.100	377.478	447.905
0.892	592.912	949.374	-156.683	429.229	922.084	129.070	406.878	914.010	-52.954	584.096	956.512	57.925	581.285	953.715	-184.479	464.729	876.251	-219.395	381.659	469.374	-76.321	377.033	447.828
0.845	593.143	949.057	-156.720	429.430	921.678	129.008	407.061	913.583	-53.007	584.292	956.199	57.883	581.494	953.381	-184.539	464.931	875.936	-219.645	381.220	469.254	-76.544	376.583	447.746
0.797	593.373	948.733	-156.754	429.624	921.267	128.946	407.244	913.150	-53.061	584.488	955.878	57.841	581.704	953.039	-184.597	465.130	875.616	-219.898	380.775	469.132	-76.770	376.128	447.661
0.749	593.604	948.401	-156.784	429.814	920.850	128.886	407.426	912.711	-53.115	584.683	955.551	57.798	581.914	952.690	-184.654	465.327	875.292	-220.154	380.327	469.006	-77.000	375.669	447.573
0.700	593.835	948.062	-156.811	430.000	920.428	128.827	407.609	912.267	-53.169	584.878	955.217	57.755	582.126	952.333	-184.711	465.520	874.964	-220.414	379.875	468.878	-77.233	375.205	447.481
0.650	594.066	947.714	-156.835	430.181	920.001	128.771	407.794	911.816	-53.224	585.072	954.876	57.712	582.340	951.969	-184.766	465.711	874.632	-220.677	379.420	468.747	-77.469	374.737	447.386
0.600	594.297	947.360	-156.855	430.359	919.569	128.717	407.979	911.359	-53.278	585.267	954.529	57.668	582.554	951.596	-184.820	465.899	874.294	-220.944	378.962	468.614	-77.708	374.265	447.288
0.549	594.529	946.998	-156.872	430.533	919.131	128.665	408.166	910.896	-53.332	585.460	954.174	57.625	582.769	951.216	-184.873	466.083	873.952	-221.213	378.501	468.479	-77.951	373.790	447.188
0.497	594.761	946.628	-156.887	430.704	918.687	128.616	408.356	910.425	-53.387	585.653	953.813	57.581	582.985	950.829	-184.925	466.266	873.606	-221.486	378.039	468.342	-78.197	373.311	447.085
0.446	594.993	946.252	-156.898	430.872	918.238	128.571	408.547	909.948	-53.441	585.846	953.445	57.538	583.201	950.434	-184.975	466.445	873.254	-221.761	377.574	468.203	-78.447	372.830	446.980
0.393	595.226	945.868	-156.906	431.037	917.784	128.529	408.742	909.462	-53.495	586.038	953.071	57.495	583.419	950.032	-185.025	466.621	872.898	-222.038	377.108	468.063	-78.698	372.346	446.872
0.341	595.458	945.478	-156.912	431.201	917.324	128.490	408.939	908.969	-53.549	586.229	952.691	57.452	583.637	949.623	-185.073	466.795	872.537	-222.318	376.642	467.922	-78.952	371.859	446.764
0.288	595.691	945.081	-156.915	431.363	916.860	128.456	409.139	908.468	-53.603	586.419	952.306	57.410	583.855	949.207	-185.120	466.966	872.172	-222.600	376.174	467.779	-79.209	371.371	446.653
0.235	595.924	944.678	-156.916	431.525	916.390	128.425	409.342	907.958	-53.657	586.608	951.915	57.369	584.075	948.784	-185.166	467.134	871.801	-222.885	375.706	467.635	-79.466	370.882	446.542
0.182	596.157	944.269	-156.915	431.686	915.915	128.398	409.549	907.439	-53.711	586.797	951.519	57.329	584.294	948.356	-185.212	467.300	871.426	-223.171	375.238	467.490	-79.725	370.391	446.429
0.129	596.389	943.854	-156.913	431.848	915.435	128.375	409.759	906.911	-53.765	586.984	951.119	57.290	584.515	947.922	-185.256	467.463	871.046	-223.458	374.769	467.344	-79.984	369.899	446.315
0.077	596.621	943.435	-156.908	432.011	914.950	128.355	409.972	906.374	-53.819	587.171	950.715	57.252	584.735	947.483	-185.299	467.624	870.662	-223.747	374.301	467.198	-80.244	369.406	446.200
0.025	596.853	943.011	-156.903	432.177	914.460	128.340	410.189	905.828	-53.872	587.356	950.306	57.215	584.957	947.039	-185.341	467.782	870.273	-224.036	373.832	467.051	-80.504	368.913	446.084
-0.026	597.084	942.582	-156.897	432.346	913.966	128.328	410.409	905.273	-53.925	587.541	949.895	57.179	585.178	946.591	-185.382	467.939	869.879	-224.326	373.364	466.903	-80.763	368.418	445.968
-0.076	597.314	942.150	-156.891	432.519	913.467	128.320	410.633	904.708	-53.977	587.724	949.480	57.145	585.401	946.139	-185.422	468.093	869.481	-224.615	372.895	466.755	-81.022	367.922	445.850
-0.126	597.544	941.714	-156.884	432.697	912.964	128.315	410.860	904.134	-54.029	587.906	949.063	57.111	585.624	945.684	-185.460	468.246	869.078	-224.904	372.425	466.606	-81.280	367.424	445.732
-0.175	597.773	941.275	-156.878	432.878	912.456	128.313	411.090	903.551	-54.080	588.088	948.643	57.079	585.847	945.225	-185.498	468.397	868.670	-225.193	371.955	466.457	-81.536	366.925	445.613
-0.222	598.001	940.834	-156.871	433.064	911.945	128.313	411.323	902.959	-54.131	588.268	948.221	57.048	586.071	944.764	-185.533	468.547	868.257	-225.479	371.483	466.306	-81.792	366.424	445.493
-0.269	598.228	940.390	-156.866	433.254	911.430	128.316	411.559	902.359	-54.181	588.448	947.797	57.018	586.295	944.301	-185.567	468.696	867.840	-225.765	371.010	466.155	-82.047	365.920	445.373
-0.314	598.454	939.943	-156.861	433.448	910.912	128.321	411.798	901.750	-54.230	588.627	947.372	56.988	586.520	943.836	-185.600	468.844	867.418	-226.048	370.535	466.004	-82.300	365.414	445.252
-0.358	598.679	939.495	-156.856	433.647	910.390	128.328	412.040	901.133	-54.278	588.805	946.944	56.959	586.744	943.370	-185.630	468.993	866.992	-226.328	370.057	465.851	-82.552	364.904	445.131
